# Thorium Argon linelist (4952-6416)
# Used with MAKEE pipeline to identify observed lines
#  in HIRES calibration spectra
# Wavelengths are Angstroms in vacuum
4952.691
4958.099
4961.726
4965.079
4965.731
4968.756
4975.949
4980.186
4982.488
4985.373
4987.147
4989.309
4992.126
4993.749
4980.186
4982.488
4985.373
4987.147
4989.309
4992.126
4993.749
5002.097
5003.598
5009.334
5015.889
5019.806
5022.005
5023.708
5029.892
5035.337
5038.302
5039.230
5041.122
5041.600
5044.720
5045.248
5047.043
5048.937
5049.796
5050.784
5051.889
5055.347
5057.987
5059.861
5062.037
5062.932
5063.516
5064.602
5064.945
5049.796
5050.784
5051.889
5055.347
5057.987
5059.861
5062.037
5062.932
5063.516
5064.602
5064.945
5066.136
5066.777
5067.974
5069.338
5074.646
5081.446
5090.051
5095.064
5096.485
5098.043
5100.621
5101.130
5109.733
5111.278
5115.045
5117.292
5122.499
5125.950
5128.490
5131.072
5134.746
5137.473
5122.499
5125.950
5128.490
5131.072
5134.746
5137.473
5141.783
5143.267
5143.917
5145.308
5146.056
5148.212
5149.207
5151.612
5154.243
5158.604
5161.540
5162.285
5163.458
5166.655
5168.922
5173.672
5174.799
5175.325
5175.912
5176.404
5176.961
5182.527
5183.990
5186.413
5187.337
5190.872
5194.458
5195.814
5198.800
5202.009
5203.848
5205.152
5207.801
5209.725
5211.230
5198.800
5202.009
5205.152
5207.801
5209.725
5211.230
5213.349
5216.597
5219.110
5228.225
5231.160
5234.107
5238.814
5239.552
5240.197
5247.655
5253.444
5258.360
5260.104
5261.472
5265.551
5266.710
5270.266
5274.119
5277.146
5277.500
5281.069
5286.887
5274.119
5277.146
5277.500
5281.069
5286.887
5289.897
5291.816
5294.397
5295.089
5296.279
5297.743
5298.282
5300.523
5301.404
5306.986
5307.466
5310.266
5312.002
5312.529
5312.904
5315.228
5317.494
5318.427
5320.770
5322.899
5325.432
5326.277
5326.976
5330.080
5337.015
5340.498
5343.581
5345.312
5346.378
5347.971
5349.005
5349.461
5351.127
5351.837
5354.602
5355.636
5358.706
5360.150
5361.156
5362.575
5354.602
5355.636
5358.706
5360.150
5361.156
5362.575
5370.710
5372.703
5374.822
5375.353
5375.769
5376.130
5379.110
5386.611
5392.573
5393.972
5394.761
5399.175
5400.145
5402.605
5403.199
5406.755
5407.654
5410.769
5417.486
5419.128
5424.008
5425.678
5426.408
5431.112
5435.123
5435.892
5437.388
5438.137
5440.601
5443.119
5447.154
5437.388
5438.137
5440.601
5443.119
5447.154
5449.479
5451.652
5452.219
5455.152
5458.968
5461.736
5462.613
5464.206
5467.170
5470.759
5477.552
5479.075
5480.891
5484.147
5488.629
5492.644
5493.204
5494.331
5496.137
5499.255
5501.281
5501.944
5504.302
5506.113
5506.920
5507.538
5508.559
5509.994
5514.873
5518.989
5521.753
5527.295
5528.227
5530.076
5530.698
5521.753
5527.295
5528.227
5530.076
5530.698
5535.971
5537.556
5539.262
5539.911
5541.147
5541.582
5542.890
5546.120
5547.134
5548.176
5552.623
5555.531
5556.149
5557.045
5558.342
5559.891
5564.201
5571.191
5573.354
5576.204
5577.685
5579.358
5580.077
5580.755
5585.847
5587.026
5588.751
5593.613
5594.460
5595.064
5598.479
5599.655
5601.603
5604.515
5606.733
5610.681
5612.068
5612.617
5615.319
5610.681
5612.068
5612.617
5615.319
5624.913
5630.297
5635.879
5639.746
5646.451
5647.707
5648.991
5650.704
5657.926
5659.127
5663.042
5664.621
5665.180
5665.628
5667.128
5673.836
5677.053
5679.005
5685.192
5687.349
5691.661
5696.390
5698.294
5700.918
5702.651
5707.103
5700.918
5702.651
5705.637
5707.103
5708.679
5715.724
5717.171
5719.623
5720.183
5725.389
5727.710
5729.982
5736.030
5739.520
5741.171
5741.829
5748.741
5749.388
5749.786
5753.026
5760.551
5763.529
5767.779
5768.181
5771.760
5773.946
5777.401
5779.835
5789.645
5792.430
5796.068
5797.319
5798.478
5800.830
5796.068
5797.319
5798.478
5800.830
5804.141
5805.702
5807.681
5812.972
5815.422
5822.793
5830.827
5832.370
5834.263
5838.950
5840.640
5843.807
5845.919
5852.681
5853.475
5854.121
5857.449
5860.310
5863.718
5866.812
5868.374
5869.851
5870.553
5871.183
5872.603
5882.624
5885.702
5886.531
5888.584
5889.953
5891.451
5895.282
5889.953
5891.451
5895.282
5896.363
5899.844
5902.602
5904.159
5905.571
5911.230
5912.085
5914.671
5918.944
5925.404
5928.813
5929.934
5936.386
5937.663
5944.647
5948.799
5955.562
5969.737
5973.665
5975.065
5986.266
5987.302
5989.045
5991.007
5994.129
5989.045
5991.007
5994.129
5996.630
5998.999
6001.203
6005.165
6007.072
6010.161
6015.422
6021.036
6023.224
6025.150
6030.445
6032.127
6035.192
6037.698
6038.681
6043.223
6044.433
6046.898
6049.051
6050.982
6052.723
6053.381
6055.594
6059.373
6061.536
6065.780
6069.021
6073.104
6077.106
6077.873
6078.421
6079.223
6087.262
6088.030
6098.120
6099.083
6101.725
6105.635
6107.534
6112.837
6114.923
6116.166
6120.556
6121.408
6122.214
6124.480
6125.740
6127.416
6138.646
6151.993
6154.068
6155.581
6157.088
6161.353
6162.170
6164.480
6169.822
6172.278
6173.096
6178.431
6180.705
6182.622
6188.125
6189.145
6191.905
6193.856
6198.223
6200.432
6200.432
6203.493
6205.860
6207.220
6208.687
6215.938
6220.011
6221.319
6224.527
6226.370
6232.975
6234.855
6240.954
6250.486
6257.424
6258.607
6261.418
6266.174
6268.200
6271.544
6274.117
6276.165
6277.239
6279.166
6285.278
6287.255
6291.191
6293.242
6296.872
6298.903
6300.917
6303.251
6304.242
6307.657
6310.810
6312.622
6315.775
6317.182
6321.300
6321.820
6326.367
6327.278
6331.414
6332.512
6335.406
6337.620
6339.668
6342.859
6346.121
6348.738
6355.911
6358.621
6359.674
6362.252
6369.139
6369.575
6371.944
6376.931
6379.673
6384.717
6387.396
6388.813
6390.129
6394.050
6400.696
6406.446
6411.899
6413.614
6416.307
