# Thorium Argon linelist (3803-4858)
# Used with MAKEE pipeline to identify observed lines
#  in HIRES calibration spectra
# Wavelengths are Angstroms in vacuum
3803.075
3807.874
3809.456
3813.068
3818.686
3820.793
3821.431
3822.148
3823.068
3825.133
3826.807
3828.385
3830.774
3831.640
3833.086
3834.679
3836.585
3837.875
3839.695
3840.800
3842.897
3845.405
3850.581
3852.135
3854.511
3859.840
3863.406
3842.897
3845.405
3850.581
3852.135
3854.511
3859.840
3863.406
3866.909
3868.528
3869.663
3872.722
3873.822
3874.862
3875.373
3878.662
3879.644
3886.916
3891.979
3893.652
3895.419
3898.437
3901.662
3903.102
3904.083
3905.186
3886.916
3891.979
3895.419
3898.437
3901.662
3903.102
3904.083
3905.186
3911.909
3916.418
3917.269
3919.023
3923.800
3925.093
3925.719
3928.623
3929.669
3932.911
3933.661
3934.274
3936.353
3937.041
3938.614
3942.073
3947.331
3948.030
3948.979
3950.395
3951.515
3928.623
3929.669
3932.911
3933.661
3936.353
3937.041
3938.614
3942.073
3947.331
3948.030
3948.979
3950.395
3951.515
3955.170
3955.890
3956.691
3959.300
3962.420
3964.030
3967.392
3968.467
3969.003
3969.664
3972.155
3972.640
3973.196
3974.477
3976.415
3979.356
3980.090
3984.880
3990.492
3991.731
3993.299
3994.549
3972.155
3972.640
3973.196
3974.477
3976.415
3979.356
3980.090
3984.880
3990.492
3991.731
3993.299
3994.549
3996.062
4001.058
4001.894
4005.093
4007.019
4008.210
4012.495
4013.857
4014.716
4019.129
4020.354
4023.338
4024.802
4025.656
4027.009
4029.826
4030.293
4030.842
4036.048
4019.129
4020.354
4023.338
4024.802
4025.656
4027.009
4029.826
4030.293
4030.842
4036.048
4041.204
4042.894
4043.395
4044.418
4049.945
4050.887
4052.921
4053.528
4059.253
4063.407
4064.331
4067.451
4070.238
4073.856
4075.503
4076.628
4079.574
4081.368
4082.387
4083.469
4085.042
4085.434
4086.521
4063.407
4064.331
4067.451
4070.238
4073.856
4075.503
4076.628
4079.574
4081.368
4082.387
4083.469
4085.042
4085.434
4086.521
4087.285
4088.726
4089.138
4093.671
4094.747
4096.076
4097.748
4100.341
4102.618
4103.912
4107.861
4108.420
4109.323
4112.755
4115.759
4116.714
4118.489
4127.412
4129.512
4131.002
4131.724
4132.753
4109.323
4112.755
4115.759
4116.714
4118.489
4127.412
4129.512
4131.002
4131.724
4132.753
4135.480
4138.041
4142.701
4143.649
4148.182
4154.721
4156.517
4158.591
4159.660
4161.739
4165.766
4168.634
4170.533
4171.341
4178.060
4178.848
4158.591
4159.660
4161.739
4165.766
4168.634
4170.533
4171.341
4178.060
4178.848
4181.884
4184.138
4192.362
4193.016
4194.932
4198.317
4200.675
4208.891
4210.923
4213.067
4214.828
4218.665
4220.065
4222.637
4226.727
4228.158
4229.148
4230.427
4208.891
4210.923
4213.067
4214.828
4218.665
4220.065
4222.637
4226.727
4228.158
4229.148
4230.427
4235.464
4237.220
4241.095
4243.261
4248.391
4250.315
4253.538
4255.237
4256.254
4257.496
4258.520
4259.362
4260.333
4263.356
4264.340
4267.519
4269.064
4269.943
4272.169
4272.874
4273.357
4275.160
4277.528
4278.323
4280.568
4257.496
4258.520
4259.362
4260.333
4263.356
4267.519
4269.064
4269.943
4272.169
4272.874
4273.357
4275.160
4277.528
4278.323
4280.568
4282.041
4286.229
4288.669
4291.810
4295.585
4300.650
4302.526
4303.989
4304.957
4307.176
4308.122
4309.239
4312.998
4314.319
4315.254
4318.416
4320.126
4325.274
4328.915
4331.199
4332.030
4312.998
4314.319
4315.254
4318.416
4320.126
4325.274
4328.915
4331.199
4332.030
4333.561
4337.277
4340.895
4342.444
4344.327
4345.168
4346.437
4348.064
4349.072
4352.205
4353.449
4358.320
4359.372
4362.066
4365.930
4367.832
4369.876
4370.753
4371.329
4374.124
4374.785
4375.954
4378.177
4379.667
4381.860
4385.057
4365.930
4367.832
4369.876
4370.753
4371.329
4374.124
4374.785
4375.954
4378.177
4379.667
4381.860
4385.057
4391.110
4392.974
4393.759
4396.478
4397.915
4400.097
4400.986
4401.581
4402.927
4408.883
4414.486
4416.237
4416.845
4422.048
4423.720
4424.837
4426.001
4430.189
4430.996
4432.252
4432.963
4433.838
4434.956
4422.048
4423.720
4424.837
4426.001
4430.189
4430.996
4432.252
4432.963
4433.838
4434.956
4441.608
4443.666
4445.901
4447.835
4448.879
4450.804
4452.565
4454.774
4458.002
4465.341
4469.525
4470.991
4474.759
4475.221
4479.638
4481.811
4483.347
4486.897
4487.495
4488.680
4489.664
4490.982
4493.334
4474.759
4475.221
4479.638
4481.811
4483.347
4486.897
4487.495
4488.680
4489.664
4490.982
4493.334
4497.914
4498.940
4499.983
4502.927
4505.217
4510.733
4513.223
4513.680
4515.118
4519.259
4521.194
4522.323
4532.258
4534.120
4535.255
4540.999
4545.052
4545.916
4547.250
4551.474
4552.154
4532.258
4534.120
4535.255
4540.999
4545.052
4545.916
4547.250
4551.474
4552.154
4555.813
4558.346
4561.348
4564.405
4564.835
4567.240
4568.143
4570.972
4579.350
4581.173
4588.426
4589.898
4592.666
4593.644
4595.421
4598.763
4599.705
4603.145
4607.935
4608.620
4609.567
4589.898
4592.666
4593.644
4595.421
4598.763
4599.705
4603.145
4607.935
4608.620
4609.567
4610.627
4611.860
4613.604
4615.334
4619.479
4621.163
4624.314
4627.298
4631.760
4637.233
4638.685
4643.557
4644.707
4647.251
4650.234
4651.555
4655.213
4657.901
4659.570
4663.203
4664.970
4666.005
4666.798
4668.172
4669.984
4650.234
4651.555
4655.213
4657.901
4659.570
4663.203
4664.970
4666.005
4666.798
4668.172
4669.984
4673.661
4675.376
4676.056
4676.972
4680.646
4683.352
4686.195
4690.622
4691.635
4694.091
4695.038
4695.460
4698.225
4700.771
4702.316
4703.990
4705.761
4708.294
4712.481
4712.841
4720.459
4721.276
4722.089
4723.438
4724.772
4726.868
4729.128
4732.053
4712.841
4720.459
4721.276
4722.089
4723.438
4724.772
4726.868
4729.128
4732.053
4735.906
4739.676
4740.529
4740.958
4741.304
4742.120
4743.680
4749.200
4749.971
4752.414
4761.110
4762.524
4764.346
4764.865
4765.595
4766.601
4768.058
4773.241
4775.313
4775.794
4777.191
4778.294
4780.751
4782.761
4786.531
4787.148
4789.387
4793.245
4775.313
4775.794
4777.191
4778.294
4780.751
4782.761
4786.531
4787.148
4789.387
4793.245
4795.913
4800.172
4806.020
4808.134
4809.614
4812.376
4813.007
4817.021
4818.648
4819.193
4820.885
4821.588
4822.855
4823.606
4823.997
4826.700
4829.797
4831.121
4831.597
4832.802
4840.849
4845.163
4847.810
4848.363
4849.140
4849.862
4850.440
4852.868
4858.333
