# Thorium Argon linelist (6545-7954)
# Used with MAKEE pipeline to identify observed lines
#  in HIRES calibration spectra
# Wavelengths are Angstroms in vacuum
6545.719
6551.706
6554.160
6558.876
6564.444
6569.632
6576.122
6577.215
6580.230
6583.906
6588.540
6591.484
6593.939
6599.482
6604.853
6605.417
6618.167
6619.946
6632.084
6638.221
6638.912
6639.740
6643.698
6644.663
6646.541
6654.368
6658.677
6668.816
6673.580
6674.697
6677.282
6678.707
6680.081
6683.367
6684.293
6687.521
6692.726
6694.497
6696.140
6697.712
6711.252
6713.970
6719.199
6727.458
6732.649
6733.749
6738.180
6742.885
6751.427
6752.833
6753.660
6756.453
6758.203
6766.612
6770.107
6778.312
6798.487
6810.549
6823.508
6824.677
6827.249
6829.035
6834.925
6839.295
6854.109
6861.269
6863.535
6868.451
6871.289
6874.753
6879.582
6882.811
6886.408
6887.088
6888.174
6889.303
6892.250
6909.849
6911.226
6937.664
6942.538
6943.610
6945.490
6951.478
6952.967
6954.656
6960.250
6981.083
6989.655
6993.037
7000.804
7002.883
7018.568
7021.283
7026.462
7030.251
7036.283
7045.797
7068.736
7072.394
7075.334
7084.169
7086.704
7089.340
7100.514
7107.478
7109.860
7114.398
7124.561
7125.820
7130.724
7131.359
7132.610
7142.331
7150.284
7153.588
7156.942
7158.839
7159.947
7162.557
7167.203
7168.895
7173.373
7176.721
7191.133
7212.690
7218.054
7219.151
7220.981
7225.110
7229.939
7229.938
7230.862
7242.092
7244.697
7246.128
7255.354
7256.986
7258.177
7265.172
7284.903
7296.266
7298.143
7305.404
7311.716
7315.066
7316.005
7324.807
7326.149
7328.285
7329.492
7335.577
7372.118
7376.877
7385.501
7392.980
7402.252
7412.337
7418.550
7422.312
7425.294
7428.940
7430.253
7435.368
7436.297
7444.749
7447.849
7455.208
7461.875
7471.164
7481.355
7483.626
7484.327
7487.974
7518.782
7523.135
7525.508
7528.489
7531.144
7536.436
7537.429
7549.314
7555.325
7565.851
7566.530
7567.742
7573.344
7589.315
7598.205
7607.823
7618.344
7620.077
7625.705
7627.175
7630.311
7647.379
7685.307
7691.771
7693.802
7703.685
7704.817
7710.269
7713.938
7728.951
7731.739
7742.563
7761.713
7771.947
7776.673
7778.492
7782.316
7788.934
7798.358
7861.910
7861.911
7864.022
7865.970
7868.195
7872.632
7875.463
7877.076
7886.283
7891.075
7893.619
7900.320
7916.442
7937.734
7941.726
7954.592
